freq,psd_x,psd_y,psd_z,psd_xyz
0.0,2.230e+02,3.020e+01,4.197e+01,2.952e+02
1.6,2.206e+02,1.562e+02,1.166e+02,4.934e+02
3.3,1.542e+02,1.794e+02,1.195e+02,4.531e+02
4.9,7.563e+02,1.862e+02,1.238e+02,1.066e+03
6.6,1.933e+03,2.005e+02,1.224e+02,2.256e+03
8.2,3.132e+03,2.046e+02,1.218e+02,3.459e+03
9.9,4.769e+03,1.986e+02,1.372e+02,5.105e+03
11.5,6.645e+03,1.943e+02,1.473e+02,6.987e+03
13.2,8.949e+03,2.044e+02,1.309e+02,9.284e+03
14.8,1.097e+04,2.339e+02,1.376e+02,1.134e+04
16.5,1.294e+04,2.328e+02,1.766e+02,1.335e+04
18.1,1.569e+04,2.072e+02,1.966e+02,1.609e+04
19.8,1.737e+04,1.990e+02,2.418e+02,1.781e+04
21.4,1.853e+04,1.969e+02,2.399e+02,1.897e+04
23.1,2.366e+04,2.084e+02,2.403e+02,2.411e+04
24.7,3.008e+04,2.440e+02,4.541e+02,3.078e+04
26.4,3.633e+04,2.962e+02,1.041e+03,3.767e+04
28.0,4.048e+04,3.713e+02,1.819e+03,4.267e+04
29.7,4.023e+04,4.551e+02,2.159e+03,4.284e+04
31.3,4.087e+04,5.288e+02,1.402e+03,4.280e+04
33.0,4.539e+04,5.926e+02,8.641e+02,4.684e+04
34.6,5.015e+04,5.609e+02,9.534e+02,5.166e+04
36.3,4.773e+04,5.898e+02,7.932e+02,4.911e+04
37.9,5.411e+04,7.699e+02,4.729e+02,5.536e+04
39.6,6.691e+04,6.247e+02,7.537e+02,6.829e+04
41.2,7.658e+04,3.673e+02,1.547e+03,7.849e+04
42.9,9.568e+04,3.325e+02,3.050e+03,9.906e+04
44.5,1.382e+05,2.882e+02,6.399e+03,1.449e+05
46.2,1.881e+05,2.295e+02,1.105e+04,1.994e+05
47.8,2.367e+05,2.925e+02,1.540e+04,2.524e+05
49.5,2.926e+05,4.116e+02,2.092e+04,3.140e+05
51.1,3.434e+05,5.729e+02,2.813e+04,3.721e+05
52.8,4.223e+05,7.417e+02,4.077e+04,4.638e+05
54.4,5.056e+05,9.785e+02,5.922e+04,5.658e+05
56.1,4.982e+05,1.306e+03,7.001e+04,5.695e+05
57.7,3.486e+05,1.471e+03,5.996e+04,4.100e+05
59.4,2.206e+05,1.551e+03,4.389e+04,2.660e+05
61.0,1.119e+05,1.603e+03,2.495e+04,1.384e+05
62.7,7.747e+04,2.363e+03,2.092e+04,1.008e+05
64.3,5.441e+04,2.940e+03,1.916e+04,7.651e+04
66.0,3.417e+04,3.081e+03,1.593e+04,5.318e+04
67.6,3.228e+04,2.453e+03,1.540e+04,5.013e+04
69.3,1.997e+04,2.405e+03,1.208e+04,3.445e+04
70.9,6.924e+03,3.244e+03,9.091e+03,1.926e+04
72.6,2.949e+03,4.588e+03,8.324e+03,1.586e+04
74.2,2.561e+03,5.154e+03,8.117e+03,1.583e+04
75.9,3.521e+03,5.189e+03,8.957e+03,1.767e+04
77.5,4.026e+03,5.506e+03,1.066e+04,2.019e+04
79.2,4.130e+03,5.823e+03,1.248e+04,2.243e+04
80.8,3.843e+03,5.995e+03,1.391e+04,2.375e+04
82.5,2.956e+03,6.107e+03,1.463e+04,2.369e+04
84.1,2.393e+03,6.133e+03,1.502e+04,2.355e+04
85.8,2.039e+03,6.368e+03,1.588e+04,2.428e+04
87.4,2.125e+03,7.055e+03,1.889e+04,2.807e+04
89.1,2.170e+03,7.792e+03,2.231e+04,3.228e+04
90.7,1.971e+03,8.099e+03,2.388e+04,3.395e+04
92.4,1.423e+03,8.138e+03,2.378e+04,3.334e+04
94.0,1.042e+03,8.130e+03,2.395e+04,3.312e+04
95.7,8.274e+02,8.386e+03,2.513e+04,3.434e+04
97.3,7.320e+02,8.726e+03,2.643e+04,3.589e+04
99.0,5.836e+02,9.142e+03,2.755e+04,3.728e+04
100.6,4.311e+02,9.662e+03,2.855e+04,3.864e+04
102.3,4.172e+02,1.023e+04,2.978e+04,4.043e+04
103.9,5.550e+02,1.051e+04,3.034e+04,4.140e+04
105.6,6.806e+02,1.090e+04,3.037e+04,4.196e+04
107.2,8.011e+02,1.163e+04,3.091e+04,4.334e+04
108.9,8.785e+02,1.232e+04,3.181e+04,4.501e+04
110.5,9.973e+02,1.213e+04,3.230e+04,4.543e+04
112.2,1.424e+03,1.177e+04,3.178e+04,4.498e+04
113.8,2.024e+03,1.135e+04,3.151e+04,4.488e+04
115.5,2.062e+03,1.050e+04,2.801e+04,4.057e+04
117.1,2.084e+03,9.176e+03,2.414e+04,3.540e+04
118.8,1.982e+03,7.767e+03,2.049e+04,3.024e+04
120.4,1.470e+03,5.546e+03,1.450e+04,2.152e+04
122.1,1.161e+03,4.069e+03,9.927e+03,1.516e+04
123.7,1.153e+03,4.047e+03,1.099e+04,1.619e+04
125.4,1.090e+03,4.032e+03,1.219e+04,1.731e+04
127.0,1.151e+03,3.968e+03,1.198e+04,1.710e+04
128.7,1.338e+03,4.118e+03,1.260e+04,1.806e+04
130.3,1.607e+03,4.532e+03,1.373e+04,1.987e+04
132.0,1.501e+03,3.750e+03,1.172e+04,1.697e+04
133.6,1.015e+03,1.852e+03,7.592e+03,1.046e+04
135.3,1.418e+03,1.536e+03,7.018e+03,9.972e+03
136.9,2.129e+03,2.040e+03,7.478e+03,1.165e+04
138.6,2.946e+03,2.301e+03,8.369e+03,1.362e+04
140.2,3.636e+03,2.156e+03,9.269e+03,1.506e+04
141.9,3.980e+03,1.944e+03,8.780e+03,1.470e+04
143.5,4.466e+03,1.438e+03,7.909e+03,1.381e+04
145.2,4.794e+03,1.967e+03,7.629e+03,1.439e+04
146.8,3.331e+03,2.991e+03,5.080e+03,1.140e+04
148.5,2.686e+03,2.707e+03,3.588e+03,8.981e+03
150.1,2.285e+03,2.134e+03,3.714e+03,8.132e+03
151.8,2.593e+03,2.201e+03,4.724e+03,9.518e+03
153.4,2.768e+03,2.361e+03,5.271e+03,1.040e+04
155.1,3.218e+03,2.617e+03,5.638e+03,1.147e+04
156.7,3.460e+03,2.832e+03,5.350e+03,1.164e+04
158.4,3.132e+03,2.958e+03,4.661e+03,1.075e+04
160.0,2.430e+03,2.859e+03,3.618e+03,8.906e+03
161.7,2.013e+03,3.208e+03,3.431e+03,8.652e+03
163.3,2.002e+03,3.201e+03,3.309e+03,8.512e+03
165.0,2.310e+03,2.363e+03,3.198e+03,7.872e+03
166.6,2.172e+03,1.449e+03,2.797e+03,6.418e+03
168.3,1.974e+03,1.021e+03,1.798e+03,4.793e+03
169.9,2.377e+03,1.073e+03,1.484e+03,4.933e+03
171.6,2.667e+03,1.682e+03,2.787e+03,7.136e+03
173.2,2.756e+03,2.296e+03,6.276e+03,1.133e+04
174.9,2.890e+03,2.339e+03,7.883e+03,1.311e+04
176.5,2.997e+03,1.735e+03,6.891e+03,1.162e+04
178.2,2.809e+03,1.868e+03,5.700e+03,1.038e+04
179.8,2.513e+03,2.147e+03,6.305e+03,1.096e+04
181.5,2.052e+03,2.294e+03,8.274e+03,1.262e+04
183.1,1.824e+03,1.972e+03,1.101e+04,1.481e+04
184.8,1.737e+03,1.807e+03,1.553e+04,1.908e+04
186.4,1.706e+03,2.149e+03,2.070e+04,2.455e+04
188.1,1.883e+03,2.470e+03,2.173e+04,2.608e+04
189.7,2.093e+03,2.424e+03,2.040e+04,2.492e+04
191.4,2.109e+03,2.833e+03,1.659e+04,2.153e+04
193.0,2.059e+03,3.412e+03,1.325e+04,1.872e+04
194.7,2.161e+03,4.204e+03,1.113e+04,1.750e+04
196.3,1.708e+03,5.079e+03,8.124e+03,1.491e+04
198.0,1.744e+03,4.932e+03,7.758e+03,1.443e+04
199.6,1.993e+03,4.224e+03,8.634e+03,1.485e+04
